#format table ## [Custom WaveView] saved 19:31:48 Sat Mar  9 2024
XVAL ,i(vds):0:vgs=0 ,i(vds):0:vgs=300m ,i(vds):0:vgs=600m ,i(vds):0:vgs=900m ,i(vds):0:vgs=1.2 ,i(vds):0:vgs=1.5 ,i(vds):0:vgs=1.8 
 0.000E+00 , 0.000E+00 , 0.000E+00 , 0.000E+00 , 0.000E+00 , 0.000E+00 , 0.000E+00 , 0.000E+00 
 5.000E-02 ,-1.324E-12 ,-1.586E-09 ,-6.653E-07 ,-7.357E-06 ,-1.424E-05 ,-1.951E-05 ,-2.361E-05 
 1.000E-01 ,-1.763E-12 ,-2.067E-09 ,-9.336E-07 ,-1.293E-05 ,-2.638E-05 ,-3.687E-05 ,-4.511E-05 
 1.500E-01 ,-1.975E-12 ,-2.267E-09 ,-1.047E-06 ,-1.696E-05 ,-3.660E-05 ,-5.223E-05 ,-6.463E-05 
 2.000E-01 ,-2.122E-12 ,-2.388E-09 ,-1.109E-06 ,-1.971E-05 ,-4.504E-05 ,-6.572E-05 ,-8.228E-05 
 2.500E-01 ,-2.244E-12 ,-2.479E-09 ,-1.150E-06 ,-2.153E-05 ,-5.186E-05 ,-7.744E-05 ,-9.816E-05 
 3.000E-01 ,-2.355E-12 ,-2.555E-09 ,-1.183E-06 ,-2.272E-05 ,-5.722E-05 ,-8.750E-05 ,-1.123E-04 
 3.500E-01 ,-2.460E-12 ,-2.624E-09 ,-1.211E-06 ,-2.354E-05 ,-6.132E-05 ,-9.599E-05 ,-1.249E-04 
 4.000E-01 ,-2.562E-12 ,-2.689E-09 ,-1.235E-06 ,-2.414E-05 ,-6.439E-05 ,-1.030E-04 ,-1.359E-04 
 4.500E-01 ,-2.660E-12 ,-2.750E-09 ,-1.258E-06 ,-2.461E-05 ,-6.667E-05 ,-1.087E-04 ,-1.453E-04 
 5.000E-01 ,-2.757E-12 ,-2.809E-09 ,-1.280E-06 ,-2.499E-05 ,-6.840E-05 ,-1.132E-04 ,-1.534E-04 
 5.500E-01 ,-2.853E-12 ,-2.866E-09 ,-1.300E-06 ,-2.532E-05 ,-6.973E-05 ,-1.168E-04 ,-1.601E-04 
 6.000E-01 ,-2.948E-12 ,-2.923E-09 ,-1.320E-06 ,-2.560E-05 ,-7.081E-05 ,-1.196E-04 ,-1.657E-04 
 6.500E-01 ,-3.043E-12 ,-2.979E-09 ,-1.339E-06 ,-2.586E-05 ,-7.169E-05 ,-1.218E-04 ,-1.701E-04 
 7.000E-01 ,-3.137E-12 ,-3.034E-09 ,-1.358E-06 ,-2.609E-05 ,-7.244E-05 ,-1.236E-04 ,-1.737E-04 
 7.500E-01 ,-3.230E-12 ,-3.088E-09 ,-1.376E-06 ,-2.630E-05 ,-7.309E-05 ,-1.250E-04 ,-1.766E-04 
 8.000E-01 ,-3.324E-12 ,-3.143E-09 ,-1.394E-06 ,-2.651E-05 ,-7.366E-05 ,-1.262E-04 ,-1.790E-04 
 8.500E-01 ,-3.417E-12 ,-3.197E-09 ,-1.411E-06 ,-2.669E-05 ,-7.418E-05 ,-1.273E-04 ,-1.810E-04 
 9.000E-01 ,-3.510E-12 ,-3.251E-09 ,-1.429E-06 ,-2.687E-05 ,-7.465E-05 ,-1.282E-04 ,-1.826E-04 
 9.500E-01 ,-3.603E-12 ,-3.305E-09 ,-1.446E-06 ,-2.704E-05 ,-7.508E-05 ,-1.290E-04 ,-1.840E-04 
 1.000E+00 ,-3.696E-12 ,-3.359E-09 ,-1.463E-06 ,-2.721E-05 ,-7.547E-05 ,-1.297E-04 ,-1.852E-04 
 1.050E+00 ,-3.790E-12 ,-3.413E-09 ,-1.480E-06 ,-2.736E-05 ,-7.585E-05 ,-1.304E-04 ,-1.863E-04 
 1.100E+00 ,-3.883E-12 ,-3.467E-09 ,-1.497E-06 ,-2.752E-05 ,-7.620E-05 ,-1.310E-04 ,-1.872E-04 
 1.150E+00 ,-3.976E-12 ,-3.521E-09 ,-1.514E-06 ,-2.766E-05 ,-7.653E-05 ,-1.316E-04 ,-1.881E-04 
 1.200E+00 ,-4.070E-12 ,-3.576E-09 ,-1.531E-06 ,-2.781E-05 ,-7.684E-05 ,-1.321E-04 ,-1.889E-04 
 1.250E+00 ,-4.164E-12 ,-3.630E-09 ,-1.548E-06 ,-2.795E-05 ,-7.714E-05 ,-1.326E-04 ,-1.896E-04 
 1.300E+00 ,-4.257E-12 ,-3.685E-09 ,-1.564E-06 ,-2.808E-05 ,-7.743E-05 ,-1.330E-04 ,-1.903E-04 
 1.350E+00 ,-4.351E-12 ,-3.740E-09 ,-1.581E-06 ,-2.822E-05 ,-7.770E-05 ,-1.334E-04 ,-1.909E-04 
 1.400E+00 ,-4.446E-12 ,-3.795E-09 ,-1.598E-06 ,-2.835E-05 ,-7.797E-05 ,-1.338E-04 ,-1.914E-04 
 1.450E+00 ,-4.540E-12 ,-3.850E-09 ,-1.614E-06 ,-2.848E-05 ,-7.823E-05 ,-1.342E-04 ,-1.920E-04 
 1.500E+00 ,-4.635E-12 ,-3.906E-09 ,-1.631E-06 ,-2.860E-05 ,-7.847E-05 ,-1.346E-04 ,-1.925E-04 
 1.550E+00 ,-4.730E-12 ,-3.962E-09 ,-1.648E-06 ,-2.873E-05 ,-7.872E-05 ,-1.350E-04 ,-1.930E-04 
 1.600E+00 ,-4.825E-12 ,-4.019E-09 ,-1.664E-06 ,-2.885E-05 ,-7.895E-05 ,-1.353E-04 ,-1.934E-04 
 1.650E+00 ,-4.921E-12 ,-4.076E-09 ,-1.681E-06 ,-2.897E-05 ,-7.918E-05 ,-1.356E-04 ,-1.939E-04 
 1.700E+00 ,-5.018E-12 ,-4.134E-09 ,-1.698E-06 ,-2.909E-05 ,-7.940E-05 ,-1.360E-04 ,-1.943E-04 
 1.750E+00 ,-5.114E-12 ,-4.192E-09 ,-1.715E-06 ,-2.921E-05 ,-7.962E-05 ,-1.363E-04 ,-1.947E-04 
 1.800E+00 ,-5.212E-12 ,-4.251E-09 ,-1.732E-06 ,-2.934E-05 ,-7.984E-05 ,-1.366E-04 ,-1.951E-04 
 1.850E+00 ,-5.310E-12 ,-4.311E-09 ,-1.750E-06 ,-2.946E-05 ,-8.005E-05 ,-1.369E-04 ,-1.954E-04 
 1.900E+00 ,-5.409E-12 ,-4.373E-09 ,-1.767E-06 ,-2.958E-05 ,-8.027E-05 ,-1.371E-04 ,-1.958E-04 
 1.950E+00 ,-5.509E-12 ,-4.435E-09 ,-1.785E-06 ,-2.970E-05 ,-8.048E-05 ,-1.374E-04 ,-1.961E-04 
 2.000E+00 ,-5.611E-12 ,-4.499E-09 ,-1.804E-06 ,-2.983E-05 ,-8.069E-05 ,-1.377E-04 ,-1.965E-04 
